#Adrien Atallah
#Project 4

#Wave Function vs. x for 3rd excited state of Woods-Saxon Potential  

  -20.000000     -2.60273794E-08
  -19.595959     -8.87245690E-08
  -19.191919     -1.39088030E-07
  -18.787878     -2.86179898E-07
  -18.383839     -4.70664816E-07
  -17.979797     -8.80550829E-07
  -17.575758     -1.49104858E-06
  -17.171717     -2.70553733E-06
  -16.767677     -4.78910033E-06
  -16.363636     -8.40552093E-06
  -15.959596     -1.50078922E-05
  -15.555555     -2.64545051E-05
  -15.151515     -4.68438193E-05
  -14.747475     -8.30144272E-05
  -14.343434     -1.46956882E-04
  -13.939394     -2.60323141E-04
  -13.535354     -4.60957468E-04
  -13.131313     -8.16305459E-04
  -12.727273     -1.44585234E-03
  -12.323233     -2.56044813E-03
  -11.919192     -4.53474512E-03
  -11.515152     -8.03088583E-03
  -11.111112     -1.42210936E-02
  -10.707071     -2.51631830E-02
  -10.303030     -4.42709588E-02
  -9.8989897     -7.50985816E-02
  -9.4949493     -0.11269631    
  -9.0909090     -0.14704460    
  -8.6868687     -0.17347115    
  -8.2828283     -0.18993099    
  -7.8787880     -0.19538723    
  -7.4747477     -0.18951137    
  -7.0707073     -0.17264281    
  -6.6666670     -0.14575964    
  -6.2626266     -0.11042120    
  -5.8585863     -6.86775893E-02
  -5.4545460     -2.29500439E-02
  -5.0505052      2.41088234E-02
  -4.6464648      6.97690770E-02
  -4.2424245      0.11138243    
  -3.8383842      0.14653479    
  -3.4343438      0.17318691    
  -3.0303035      0.18979338    
  -2.6262629      0.19539060    
  -2.2222226      0.18965377    
  -1.8181822      0.17291558    
  -1.4141418      0.14614762    
  -1.0101013      0.11090180    
 -0.60606098      6.92228526E-02
 -0.20202059      2.35287137E-02
  0.20201981     -2.35302486E-02
  0.60606021     -6.92244694E-02
   1.0101006     -0.11090347    
   1.4141409     -0.14614935    
   1.8181814     -0.17291769    
   2.2222219     -0.18965559    
   2.6262622     -0.19539209    
   3.0303025     -0.18979432    
   3.4343429     -0.17318729    
   3.8383834     -0.14653404    
   4.2424240     -0.11138049    
   4.6464643     -6.97662681E-02
   5.0505047     -2.41048951E-02
   5.4545450      2.29551196E-02
   5.8585854      6.86837882E-02
   6.2626257      0.11042798    
   6.6666660      0.14576696    
   7.0707064      0.17265056    
   7.4747467      0.18951899    
   7.8787875      0.19539429    
   8.2828274      0.18993741    
   8.6868677      0.17347676    
   9.0909081      0.14704902    
   9.4949493      0.11269968    
   9.8989897      7.51006901E-02
   10.303030      4.42722477E-02
   10.707070      2.51639318E-02
   11.111111      1.42215006E-02
   11.515151      8.03121179E-03
   11.919191      4.53491742E-03
   12.323232      2.56064953E-03
   12.727272      1.44586386E-03
   13.131312      8.16446962E-04
   13.535353      4.60981770E-04
   13.939393      2.60296511E-04
   14.343433      1.46941064E-04
   14.747474      8.29471173E-05
   15.151514      4.68258368E-05
   15.555555      2.64558439E-05
   15.959596      1.48995496E-05
   16.363636      8.29613964E-06
   16.767675      4.57635770E-06
   17.171717      2.56792373E-06
   17.575756      1.48109871E-06
   17.979797      7.90084130E-07
   18.383837      5.46082845E-07
   18.787878      3.66808621E-07
   19.191919      2.95235338E-07
   19.595959      2.09312873E-07
   20.000000      1.50162535E-07
